3	172.239819697
3.02	172.6742030303
3.04	176.2466280303
3.06	173.303444697
3.08	172.6454030303
3.1	174.598694697
3.12	178.2435030303
3.14	178.6310863637
3.16	180.0116280303
3.18	183.2937363637
3.2	183.4825780303
3.22	189.250794697
3.24	188.6244613637
3.26	195.0121613637
3.28	199.132544697
3.3	202.986494697
3.32	208.628744697
3.34	206.2709613637
3.36	213.192444697
3.38	217.981794697
3.4	219.6994863637
3.42	223.3759530303
3.44	226.2925863637
3.46	234.305619697
3.48	238.566994697
3.5	242.911194697
3.52	246.4547113637
3.54	251.950069697
3.56	259.719194697
3.58	265.9852113637
3.6	268.1688280303
3.62	269.1278613637
3.64	275.7034613637
3.66	280.608544697
3.68	283.6226280303
3.7	279.082319697
3.72	280.9243280303
3.74	281.293319697
3.76	280.5628280303
3.78	275.7900280303
3.8	271.005294697
3.82	266.518544697
3.84	262.4084030303
3.86	251.0969030303
3.88	245.1149863637
3.9	239.593044697
3.92	230.7176113637
3.94	221.3636530303
3.96	214.5057530303
3.98	206.4598613637
4	200.8465863637
4.02	194.378119697
4.04	186.095869697
4.06	179.9254530303
4.08	174.6432780303
4.1	168.7569863637
4.12	166.6499113637
4.14	161.3371613637
4.16	157.2709863637
4.18	151.3761280303
4.2	150.852444697
4.22	144.912919697
4.24	144.4282030303
4.26	139.5342113637
4.28	136.5469863637
4.3	133.2447863637
4.32	129.155569697
4.34	129.9865780303
4.36	126.210794697
4.38	126.5240280303
4.4	123.2374863637
4.42	118.884869697
4.44	118.4399030303
4.46	116.568319697
4.48	117.0979113637
4.5	114.1118780303
4.52	111.4653613637
4.54	109.5002530303
4.56	108.0522530303
4.58	108.5741530303
4.6	106.786244697
4.62	106.0329113637
4.64	103.5009613637
4.66	103.7645030303
4.68	102.2571530303
4.7	103.1712363637
4.72	100.3087030303
4.74	99.8809530303
4.76	100.6965280303
4.78	98.419744697
4.8	98.1704030303
4.82	97.0054030303
4.84	94.8283280303
4.86	94.2821613637
4.88	92.7998613637
4.9	91.8017530303
4.92	93.4669113637
4.94	91.8258280303
4.96	90.4202113637
4.98	89.733494697
5	89.8746530303
5.02	88.6495780303
5.04	89.536319697
5.06	90.5004613637
5.08	89.0075280303
5.1	88.8309113637
5.12	87.028569697
5.14	86.240744697
5.16	87.6436113637
5.18	87.266794697
5.2	88.0784863637
5.22	87.076619697
5.24	86.815569697
5.26	87.014994697
5.28	87.3327530303
5.3	87.515919697
5.32	86.7488613637
5.34	87.9937530303
5.36	86.713919697
5.38	86.620819697
5.4	86.8885780303
5.42	87.499419697
5.44	86.7783613637
5.46	86.8533280303
5.48	88.861494697
5.5	90.276194697
5.52	89.507119697
5.54	90.4470780303
5.56	91.8190280303
5.58	92.5315280303
5.6	94.335744697
5.62	94.7400780303
5.64	95.468994697
5.66	97.060194697
5.68	95.174369697
5.7	97.3162530303
5.72	97.5377363637
5.74	99.5832530303
5.76	100.5709530303
5.78	102.3189530303
5.8	103.602244697
5.82	103.1232530303
5.84	106.818369697
5.86	107.6232030303
5.88	111.8867030303
5.9	114.5935780303
5.92	117.8329613637
5.94	119.2398363637
5.96	121.119169697
5.98	127.470044697
6	128.6556530303
6.02	134.0481113637
6.04	135.2182780303
6.06	137.4297113637
6.08	140.9890280303
6.1	142.8752113637
6.12	146.2022030303
6.14	149.9012863637
6.16	150.855294697
6.18	150.631994697
6.2	149.9460280303
6.22	150.9704613637
6.24	152.5961113637
6.26	151.2695863637
6.28	150.6464530303
6.3	148.602944697
6.32	148.1867030303
6.34	144.326994697
6.36	143.0762113637
6.38	140.3504613637
6.4	138.785819697
6.42	139.8540030303
6.44	135.541669697
6.46	130.8125363637
6.48	127.0455780303
6.5	127.541419697
6.52	127.498194697
6.54	125.7206280303
6.56	122.1411280303
6.58	116.9874530303
6.6	118.1935780303
6.62	117.9676113637
6.64	114.3567780303
6.66	114.7692363637
6.68	110.5186613637
6.7	111.6383613637
6.72	108.021569697
6.74	109.0774113637
6.76	107.1117113637
6.78	105.5451113637
6.8	102.667694697
6.82	101.8919613637
6.84	101.4951113637
6.86	102.7371113637
6.88	98.1438780303
6.9	96.9248780303
6.92	97.5698613637
6.94	95.1432780303
6.96	95.5181530303
6.98	101.372794697
7	105.566694697
7.02	108.314094697
7.04	104.848294697
7.06	104.049694697
7.08	103.937594697
7.1	103.299194697
7.12	102.176794697
7.14	100.714994697
7.16	100.261394697
7.18	96.063594697
7.2	91.488094697
7.22	85.627194697
7.24	84.022994697
7.26	81.880794697
7.28	79.3938780303
7.3	78.4308613637
7.32	77.906319697
7.34	77.146169697
7.36	74.7645780303
7.38	73.0476113637
7.4	72.0306530303
7.42	70.9203613637
7.44	70.7625280303
7.46	71.017319697
7.48	69.3763363637
7.5	67.378619697
7.52	67.1042363637
7.54	65.776544697
7.56	68.3610863637
7.58	65.8104113637
7.6	63.8921280303
7.62	63.4576113637
7.64	62.566994697
7.66	63.6479863637
7.68	62.2443280303
7.7	61.653744697
7.72	60.810544697
7.74	61.0078780303
7.76	60.0606280303
7.78	60.8327363637
7.8	61.124994697
7.82	60.2154863637
7.84	59.2936113637
7.86	57.0373280303
7.88	58.0561530303
7.9	57.0487780303
7.92	57.1988613637
7.94	56.2378613637
7.96	55.1871280303
7.98	55.582919697
8	55.5940363637
8.02	56.7142863637
8.04	56.4516530303
8.06	55.7550780303
8.08	55.0046113637
8.1	56.2202530303
8.12	56.4731113637
8.14	55.3037530303
8.16	53.662694697
8.18	53.981444697
8.2	53.0614530303
8.22	54.6013613637
8.24	51.4484863637
8.26	52.7037363637
8.28	52.4034530303
8.3	51.7406280303
8.32	53.5483280303
8.34	51.3235863637
8.36	52.1353280303
8.38	53.104619697
8.4	53.083669697
8.42	52.6291613637
8.44	52.4202363637
8.46	51.6057863637
8.48	52.9833280303
8.5	52.049194697
8.52	51.792819697
8.54	53.1115363637
8.56	53.2385363637
8.58	53.3308780303
8.6	54.1971113637
8.62	52.2588780303
8.64	55.209919697
8.66	53.7546113637
8.68	54.6972530303
8.7	56.242294697
8.72	54.9326280303
8.74	55.5761613637
8.76	54.551444697
8.78	56.0506113637
8.8	57.1220863637
8.82	54.4589113637
8.84	55.0215863637
8.86	55.7699113637
8.88	55.394919697
8.9	57.890244697
8.92	56.208069697
8.94	56.912194697
8.96	57.8922780303
8.98	58.4312530303
9	60.3616530303
9.02	59.4856113637
9.04	60.5510863637
9.06	62.1772363637
9.08	61.6145863637
9.1	63.349869697
9.12	64.2968780303
9.14	66.2296530303
9.16	67.172744697
9.18	69.0105780303
9.2	68.0072780303
9.22	70.522619697
9.24	71.863494697
9.26	74.1814863637
9.28	73.3443280303
9.3	73.6988780303
9.32	74.0451113637
9.34	72.8527863637
9.36	74.477169697
9.38	73.1667863637
9.4	72.9218780303
9.42	71.500794697
9.44	71.9986280303
9.46	70.9275280303
9.48	71.7795030303
9.5	70.2017030303
9.52	70.725369697
9.54	69.3991113637
9.56	68.4979113637
9.58	68.693694697
9.6	69.0016280303
9.62	69.5573363637
9.64	67.427294697
9.66	66.7084613637
9.68	66.287044697
9.7	65.472119697
9.72	65.5856613637
9.74	64.5173613637
9.76	61.8727530303
9.78	63.6055863637
9.8	64.3726613637
9.82	61.265044697
9.84	61.6540030303
9.86	58.9050780303
9.88	61.356694697
9.9	61.5984613637
9.92	59.2169030303
9.94	56.698994697
9.96	58.4058780303
9.98	57.856444697
10	58.448444697
10.02	55.3344030303
10.04	55.7255280303
10.06	56.5392780303
10.08	55.464294697
10.1	54.7004863637
10.12	52.9801113637
10.14	52.3281280303
10.16	51.9837113637
10.18	52.0822780303
10.2	50.7799113637
10.22	51.279044697
10.24	50.2030863637
10.26	48.643319697
10.28	49.784119697
10.3	49.2216280303
10.32	50.0658613637
10.34	47.6032530303
10.36	47.340744697
10.38	47.169819697
10.4	47.563069697
10.42	48.1197030303
10.44	46.8772363637
10.46	46.9010780303
10.48	47.320919697
10.5	46.7788363637
10.52	46.075694697
10.54	47.8186530303
10.56	47.5954113637
10.58	47.9479613637
10.6	45.9410363637
10.62	45.110544697
10.64	45.9605863637
10.66	45.0882030303
10.68	44.708744697
10.7	43.985669697
10.72	43.3955280303
10.74	43.6077113637
10.76	43.7431613637
10.78	41.566494697
10.8	42.396944697
10.82	43.6275863637
10.84	44.8622113637
10.86	44.454294697
10.88	43.0456613637
10.9	42.2169030303
10.92	42.5513280303
10.94	43.0461613637
10.96	44.3258613637
10.98	43.2555863637
11	41.9663280303
11.02	41.3257530303
11.04	41.1522863637
11.06	43.8498613637
11.08	42.955319697
11.1	42.0988280303
11.12	41.793669697
11.14	41.4734613637
11.16	41.552069697
11.18	42.2256530303
11.2	42.327169697
11.22	42.632494697
11.24	43.5008613637
11.26	42.4573613637
11.28	44.1306530303
11.3	43.616369697
11.32	43.367069697
11.34	44.6016613637
11.36	44.5839113637
11.38	45.6712780303
11.4	43.8502530303
11.42	42.4003363637
11.44	42.7796280303
11.46	46.265569697
11.48	45.3644113637
11.5	44.6768363637
11.52	44.6559113637
11.54	44.827194697
11.56	47.8161530303
11.58	46.7177030303
11.6	47.1710780303
11.62	47.6452780303
11.64	46.6921113637
11.66	48.2331113637
11.68	47.6874863637
11.7	48.051694697
11.72	47.0287780303
11.74	46.940044697
11.76	48.3142780303
11.78	48.780919697
11.8	47.9741280303
11.82	47.4098780303
11.84	46.941944697
11.86	48.339994697
11.88	49.1715863637
11.9	49.3049863637
11.92	49.2363613637
11.94	49.8921113637
11.96	49.884994697
11.98	50.6866280303
12	52.2322530303
12.02	52.9044113637
12.04	53.4749030303
12.06	52.984494697
12.08	52.8600363637
12.1	56.2205280303
12.12	55.876119697
12.14	56.3270030303
12.16	53.522794697
12.18	54.0922530303
12.2	57.2013613637
12.22	56.768294697
12.24	56.7460363637
12.26	53.5705363637
12.28	53.953869697
12.3	56.6980780303
12.32	56.766244697
12.34	55.6739030303
12.36	54.6750363637
12.38	55.1027113637
12.4	56.2308280303
12.42	57.139544697
12.44	55.9252363637
12.46	57.0749863637
12.48	56.468994697
12.5	55.080044697
12.52	57.028669697
12.54	57.7780363637
12.56	58.573744697
12.58	59.1913780303
12.6	57.457419697
12.62	58.3001613637
12.64	59.839319697
12.66	59.8249613637
12.68	60.7074863637
12.7	61.9011113637
12.72	61.593169697
12.74	62.356444697
12.76	60.756544697
12.78	60.6791113637
12.8	61.737444697
12.82	60.7355780303
12.84	61.0525030303
12.86	59.9348280303
12.88	59.5940863637
12.9	58.286494697
12.92	59.6401113637
12.94	58.9569613637
12.96	59.541069697
12.98	57.0180780303
13	57.4255280303
13.02	57.1534030303
13.04	56.1729030303
13.06	55.8284030303
13.08	53.962169697
13.1	54.4086113637
13.12	54.4075030303
13.14	54.515044697
13.16	55.3025863637
13.18	53.5935863637
13.2	55.2104113637
13.22	54.470744697
13.24	54.7134530303
13.26	55.8545363637
13.28	55.921794697
13.3	55.246994697
13.32	52.9056530303
13.34	55.557494697
13.36	54.112069697
13.38	53.0497863637
13.4	54.5567030303
13.42	53.5774030303
13.44	54.4385363637
13.46	53.7949113637
13.48	53.0474863637
13.5	53.8647780303
13.52	53.5262780303
13.54	54.3817113637
13.56	54.2505030303
13.58	54.132244697
13.6	51.8059613637
13.62	52.601194697
13.64	51.9457363637
13.66	53.2857863637
13.68	53.131194697
13.7	52.2552530303
13.72	52.9387113637
13.74	52.8001530303
13.76	51.9207780303
13.78	51.9961280303
13.8	53.358919697
13.82	54.0969030303
13.84	54.9584113637
13.86	52.8575863637
13.88	52.863119697
13.9	52.9170863637
13.92	51.8356613637
13.94	52.7817780303
13.96	51.799044697
13.98	52.522994697
14	49.7423628788
14.02	50.0626075758
14.04	50.1509189394
14.06	50.2699030303
14.08	51.0960992425
14.1	52.7427219697
14.12	53.4147962122
14.14	53.3574545455
14.16	53.1939833334
14.18	53.5400909091
14.2	53.6195727273
14.22	53.5663356061
14.24	53.7499795455
14.26	53.4750174243
14.28	53.4221780303
14.3	54.6771931818
14.32	55.4517219697
14.34	56.9371590909
14.36	57.1901666667
14.38	57.3876409091
14.4	58.4260113637
14.42	58.4598075758
14.44	58.4327727273
14.46	57.6420007576
14.48	56.8699962122
14.5	56.6536803031
14.52	56.8090909091
14.54	57.3418333334
14.56	58.1734227273
14.58	58.8487371212
14.6	59.0261075758
14.62	59.1776098485
14.64	59.2714787879
14.66	60.4498545455
14.68	60.2090916667
14.7	60.5798106061
14.72	61.1764545455
14.74	62.2027659091
14.76	63.2089416667
14.78	62.7307992425
14.8	61.4140090909
14.82	61.5419340909
14.84	62.9068651515
14.86	63.2373871212
14.88	63.1166689394
14.9	63.6831492425
14.92	64.1183053031
14.94	65.5695537879
14.96	65.7108689394
14.98	66.5744568182
15	67.4195212122
15.02	68.0985901515
15.04	69.7571022728
15.06	70.6397227273
15.08	71.5304356061
15.1	72.4753878788
15.12	72.5167303031
15.14	73.4188977273
15.16	73.6145848485
15.18	73.7570083334
15.2	73.9014416667
15.22	74.2297787879
15.24	74.3321325758
15.26	73.9766545455
15.28	74.2857840909
15.3	74.9001931818
15.32	74.9531015152
15.34	74.9547613637
15.36	75.8502575758
15.38	76.4054742425
15.4	77.0334484849
15.42	77.4696386364
15.44	79.2630704546
15.46	79.6178113637
15.48	78.940975
15.5	79.8145325758
15.52	80.7659704546
15.54	80.8024871212
15.56	80.456114394
15.58	81.8756613637
15.6	82.7832803031
15.62	84.1467
15.64	85.2718545455
15.66	85.2282901515
15.68	85.2318431818
15.7	85.8599287879
15.72	86.0437954546
15.74	85.8260159091
15.76	86.5769303031
15.78	87.3974469697
15.8	87.167894697
15.82	86.701175
15.84	87.7249886364
15.86	89.1564090909
15.88	89.3400901515
15.9	89.5894916667
15.92	88.9843734849
15.94	88.5844719697
15.96	89.1524371212
15.98	88.2949795455
16	88.0694151515
16.02	88.7071575758
16.04	89.06
16.06	89.6561719697
16.08	89.8494992425
16.1	89.7980174243
16.12	89.4889462122
16.14	88.8490189394
16.16	87.9181727273
16.18	86.9500992425
16.2	87.1695280303
16.22	88.2648901515
16.24	87.948214394
16.26	87.5963159091
16.28	88.3663053031
16.3	88.7720189394
16.32	88.3824265152
16.34	88.7567356061
16.36	88.4520287879
16.38	89.3745386364
16.4	89.0397901515
16.42	89.1350325758
16.44	88.2602659091
16.46	87.4532136364
16.48	86.9246818182
16.5	86.2315969697
16.52	85.2885060606
16.54	85.7871234849
16.56	86.2768371212
16.58	87.0736545455
16.6	86.6118189394
16.62	85.4430628788
16.64	84.7966977273
16.66	84.7064560606
16.68	84.9786712122
16.7	83.8509553031
16.72	84.173825
16.74	84.5816969697
16.76	83.7297863637
16.78	82.7942204546
16.8	82.4738166667
16.82	82.5192742425
16.84	83.0826310606
16.86	82.8506022728
16.88	82.2982757576
16.9	82.435544697
16.92	82.7845106061
16.94	83.3440121212
16.96	81.9798075758
16.98	81.1611257576
17	79.9007280303
17.02	79.671064394
17.04	80.2069037879
17.06	78.6691522728
17.08	78.1925901515
17.1	78.5366613637
17.12	77.9947977273
17.14	77.8539704546
17.16	76.5130939394
17.18	76.2957598485
17.2	76.2565121212
17.22	76.3647575758
17.24	75.2636522728
17.26	75.574489394
17.28	76.612239394
17.3	76.4509106061
17.32	75.9692575758
17.34	75.4764469697
17.36	74.5694856061
17.38	72.9198507576
17.4	71.8139037879
17.42	71.6041265152
17.44	71.9905
17.46	71.2685454546
17.48	70.8639931818
17.5	71.1712136364
17.52	71.0774189394
17.54	71.5973916667
17.56	70.5480174243
17.58	69.3568189394
17.6	68.2323166667
17.62	67.4424833334
17.64	67.2402098485
17.66	66.5669583334
17.68	67.4094984849
17.7	66.890119697
17.72	66.0345340909
17.74	65.1328651515
17.76	64.3768333334
17.78	64.3122636364
17.8	63.3090045455
17.82	63.1121295455
17.84	63.7744037879
17.86	64.3988568182
17.88	64.2183522728
17.9	64.1218
17.92	64.5153272728
17.94	64.141225
17.96	64.1356303031
17.98	63.6084401515
18	64.2501333334
18.02	63.3742318182
18.04	62.5966962122
18.06	62.4463818182
18.08	63.4238257576
18.1	64.545994697
18.12	63.8060151515
18.14	62.49885
18.16	61.9841856061
18.18	62.1934007576
18.2	63.0497234849
18.22	62.7879234849
18.24	62.864775
18.26	63.2284462122
18.28	64.1657727273
18.3	63.1322810606
18.32	62.7951462122
18.34	62.9324522728
18.36	62.4625613637
18.38	63.2555234849
18.4	63.396069697
18.42	64.3512037879
18.44	64.3318689394
18.46	64.0639969697
18.48	63.6332424243
18.5	63.1542833334
18.52	63.6846234849
18.54	63.6103651515
18.56	63.7322924243
18.58	63.89605
18.6	64.1413522728
18.62	63.7629969697
18.64	64.1111780303
18.66	64.2739757576
18.68	64.6120227273
18.7	65.1227416667
18.72	65.1525765152
18.74	64.919089394
18.76	64.7418568182
18.78	65.4294530303
18.8	65.6942545455
18.82	64.5188378788
18.84	64.9556272728
18.86	64.8735098485
18.88	64.2669969697
18.9	64.6964840909
18.92	65.4470537879
18.94	65.9534984849
18.96	66.3076083334
18.98	67.6022689394
19	67.2216015152
19.02	68.2018136364
19.04	69.0297333334
19.06	68.6301712122
19.08	68.8137674243
19.1	68.0879681818
19.12	68.2610325758
19.14	68.7216803031
19.16	69.3459318182
19.18	70.2009818182
19.2	70.2491280303
19.22	70.6588136364
19.24	69.7605916667
19.26	69.8255325758
19.28	69.3575931818
19.3	69.4012212122
19.32	69.1160719697
19.34	68.6962787879
19.36	69.0992613637
19.38	68.6315553031
19.4	68.3623734849
19.42	68.0205931818
19.44	67.6639856061
19.46	68.57625
19.48	69.6020575758
19.5	69.51565
19.52	69.8246416667
19.54	70.589975
19.56	70.1898613637
19.58	68.7308280303
19.6	68.5701037879
19.62	68.6028181818
19.64	67.9161977273
19.66	66.853369697
19.68	67.1962636364
19.7	67.5128015152
19.72	66.4671553031
19.74	66.7363424243
19.76	66.6613204546
19.78	66.0349265152
19.8	65.0918727273
19.82	66.2267689394
19.84	67.2632090909
19.86	66.9738810606
19.88	66.6547924243
19.9	66.2374333334
19.92	66.5047537879
19.94	66.2099265152
19.96	66.2981053031
19.98	65.8959977273
20	65.8553765152
20.02	66.4169303031
20.04	66.4876515152
20.06	66.4706765152
20.08	66.8309272728
20.1	66.8857553031
20.12	66.6021916667
20.14	66.3950553031
20.16	66.0192295455
20.18	66.0267598485
20.2	66.1705037879
20.22	67.6133151515
20.24	67.3993537879
20.26	67.7574886364
20.28	66.7084325758
20.3	65.2168015152
20.32	65.7866916667
20.34	66.5220204546
20.36	66.8463007576
20.38	67.4552848485
20.4	67.3936477273
20.42	67.912994697
20.44	68.1666227273
20.46	68.1611606061
20.48	67.2327219697
20.5	65.8538545455
20.52	65.6215553031
20.54	65.5212537879
20.56	64.7525265152
20.58	65.31005
20.6	65.3610969697
20.62	65.2138371212
20.64	64.5596022728
20.66	64.9703962122
20.68	64.8544401515
20.7	63.9748901515
20.72	64.4397219697
20.74	65.3421121212
20.76	65.5574151515
20.78	65.6553515152
20.8	66.2566674243
20.82	65.7930659091
20.84	66.0613568182
20.86	65.7540462122
20.88	65.9823204546
20.9	66.0115719697
20.92	65.74615
20.94	64.9173924243
20.96	64.6032621212
20.98	64.1601939394
21	64.2511727273
21.02	63.9284090909
21.04	64.3321128788
21.06	64.4013598485
21.08	65.7095325758
21.1	65.6474659091
21.12	65.630294697
21.14	64.7815234849
21.16	65.2206621212
21.18	65.0444848485
21.2	64.8304227273
21.22	64.4708242425
21.24	64.3751045455
21.26	64.4514416667
21.28	64.6030818182
21.3	63.8042810606
21.32	63.7803325758
21.34	64.1297068182
21.36	63.3637795455
21.38	63.4134530303
21.4	63.0402787879
21.42	63.781769697
21.44	64.4121037879
21.46	62.9897886364
21.48	61.6011424243
21.5	61.2081613637
21.52	62.1997962122
21.54	62.1729257576
21.56	62.7905325758
21.58	63.5979454546
21.6	63.7524492425
21.62	64.3109909091
21.64	64.6832106061
21.66	64.7895098485
21.68	65.1514681818
21.7	65.0390545455
21.72	66.4049931818
21.74	66.6409568182
21.76	65.5555962122
21.78	65.4253484849
21.8	65.3681287879
21.82	66.7223053031
21.84	66.6392757576
21.86	67.2624507576
21.88	68.3003810606
21.9	67.6021416667
21.92	66.9329098485
21.94	66.5548833334
21.96	66.8227022728
21.98	66.432844697
22	66.4809962122
22.02	67.2284424243
22.04	68.1980537879
22.06	68.973839394
22.08	68.365894697
22.1	67.8577371212
22.12	68.1805590909
22.14	67.9248681818
22.16	67.1782704546
22.18	67.3989242425
22.2	67.6408166667
22.22	68.2691992425
22.24	69.008494697
22.26	69.3131962122
22.28	68.6365401515
22.3	69.2119931818
22.32	69.6756212122
22.34	69.5293477273
22.36	69.2840666667
22.38	68.7310454546
22.4	70.2058977273
22.42	70.8545060606
22.44	71.4352674243
22.46	71.6689613637
22.48	71.2112090909
22.5	72.504644697
22.52	74.1453916667
22.54	74.2821674243
22.56	73.757989394
22.58	73.7948772728
22.6	73.2701265152
22.62	73.2267318182
22.64	73.1683030303
22.66	73.1563340909
22.68	74.0915287879
22.7	74.370325
22.72	75.2544090909
22.74	75.972625
22.76	77.4119628788
22.78	77.2661083334
22.8	78.4076969697
22.82	78.7492333334
22.84	77.7656856061
22.86	77.7720439394
22.88	77.7324409091
22.9	79.2169075758
22.92	78.7589325758
22.94	78.2852765152
22.96	79.0199530303
22.98	79.5994787879
23	79.6847621212
23.02	80.9667272728
23.04	82.7316712122
23.06	81.772644697
23.08	81.4626189394
23.1	80.3063886364
23.12	80.1331651515
23.14	81.406714394
23.16	81.0084833334
23.18	81.4238962122
23.2	82.1560856061
23.22	83.4753204546
23.24	83.6550825758
23.26	84.7955840909
23.28	85.9992712122
23.3	86.6489931818
23.32	86.9114825758
23.34	86.5065007576
23.36	86.3324765152
23.38	87.254864394
23.4	88.123039394
23.42	88.927864394
23.44	89.6299325758
23.46	90.271869697
23.48	90.4897340909
23.5	90.3695037879
23.52	90.0674962122
23.54	90.0728681818
23.56	91.6876462122
23.58	92.3385613637
23.6	92.9803712122
23.62	94.1917159091
23.64	95.3597242425
23.66	94.9656613637
23.68	95.1297530303
23.7	95.6711818182
23.72	95.8222810606
23.74	96.3885386364
23.76	96.2350265152
23.78	96.754394697
23.8	96.7242575758
23.82	97.1404659091
23.84	98.1901689394
23.86	99.7768886364
23.88	101.6964477273
23.9	102.0602621212
23.92	102.5260007576
23.94	104.2437371212
23.96	104.8986878788
23.98	105.9111424243
24	105.6821628788
24.02	105.4507545455
24.04	105.3193560606
24.06	105.3656780303
24.08	106.5712689394
24.1	108.1149439394
24.12	108.77515
24.14	109.6297598485
24.16	108.8553106061
24.18	109.834589394
24.2	111.4301439394
24.22	112.2177181818
24.24	112.7648583334
24.26	113.373619697
24.28	114.3055318182
24.3	115.0787030303
24.32	115.5719909091
24.34	116.8879803031
24.36	117.5353954546
24.38	118.2483825758
24.4	117.9486553031
24.42	118.2024053031
24.44	119.0544909091
24.46	119.3190272728
24.48	120.6948507576
24.5	121.6089075758
24.52	121.586019697
24.54	122.7896537879
24.56	122.6887477273
24.58	123.0894181818
24.6	124.2997924243
24.62	124.0836727273
24.64	125.0495719697
24.66	125.6984719697
24.68	124.9102295455
24.7	124.4091674243
24.72	125.0214234849
24.74	126.9010401515
24.76	127.469164394
24.78	128.4151083334
24.8	129.0351015152
24.82	131.1248295455
24.84	132.0552939394
24.86	131.5887280303
24.88	132.2349340909
24.9	132.5547068182
24.92	134.7758492425
24.94	134.8913969697
24.96	133.9548234849
24.98	135.3630325758
25	136.3745325758
25.02	137.0745431818
25.04	135.7138280303
25.06	136.5557901515
25.08	137.4769477273
25.1	138.0728386364
25.12	137.9971219697
25.14	139.1214492425
25.16	138.2455053031
25.18	138.6560340909
25.2	140.4333712122
25.22	141.3517181818
25.24	141.9763992425
25.26	142.3046727273
25.28	142.639214394
25.3	142.5096454546
25.32	141.8251992425
25.34	142.3022704546
25.36	142.3252060606
25.38	142.880189394
25.4	143.7193568182
25.42	142.8284477273
25.44	144.0008469697
25.46	144.4274227273
25.48	143.7693431818
25.5	143.1889
25.52	143.2018659091
25.54	143.9302371212
25.56	144.555125
25.58	143.5668575758
25.6	142.9124212122
25.62	142.3919818182
25.64	143.2603583334
25.66	142.7734075758
25.68	143.4652356061
25.7	143.5333053031
25.72	144.6444916667
25.74	145.8762318182
25.76	146.4663848485
25.78	146.1280356061
25.8	144.8552977273
25.82	144.3714227273
25.84	143.9872977273
25.86	143.7984462122
25.88	143.7613568182
25.9	142.2357969697
25.92	143.1093439394
25.94	141.7707424243
25.96	141.3534628788
25.98	141.7406530303
26	140.6461765152
26.02	142.1197030303
26.04	142.5180931818
26.06	143.1309590909
26.08	142.8648530303
26.1	141.5475113637
26.12	141.7316272728
26.14	140.7076492425
26.16	139.8924037879
26.18	138.9285621212
26.2	137.8123113637
26.22	137.5958734849
26.24	137.5151666667
26.26	135.8521363637
26.28	135.4388606061
26.3	135.3617545455
26.32	135.2050871212
26.34	134.9892272728
26.36	134.8875681818
26.38	133.7806454546
26.4	133.0303780303
26.42	132.9816378788
26.44	132.1980992425
26.46	131.6595924243
26.48	130.1127992425
26.5	130.2931924243
26.52	129.91865
26.54	129.0707431818
26.56	129.5326371212
26.58	129.6518280303
26.6	128.0268416667
26.62	126.9608424243
26.64	126.5779265152
26.66	126.5248219697
26.68	126.1921045455
26.7	125.1212848485
26.72	122.9267954546
26.74	121.9495159091
26.76	120.3793681818
26.78	119.2741053031
26.8	119.3627613637
26.82	118.7165128788
26.84	118.9094848485
26.86	117.8379439394
26.88	117.2809136364
26.9	115.051339394
26.92	114.2092977273
26.94	113.5868757576
26.96	113.4394780303
26.98	112.9279689394
27	112.2915628788
27.02	111.4736818182
27.04	109.5069681818
27.06	109.4158356061
27.08	109.0156106061
27.1	107.7786628788
27.12	106.5964795455
27.14	105.9861007576
27.16	106.2097295455
27.18	105.3521659091
27.2	104.0550287879
27.22	102.0343409091
27.24	101.9648659091
27.26	100.4224848485
27.28	100.2203015152
27.3	100.1556628788
27.32	98.5555318182
27.34	97.8789977273
27.36	96.9207613637
27.38	96.2278515152
27.4	96.3687689394
27.42	96.5401416667
27.44	96.6742924243
27.46	96.1450022728
27.48	96.1551628788
27.5	95.7696272728
27.52	95.8474015152
27.54	95.3944113637
27.56	94.0660765152
27.58	92.0850818182
27.6	90.9670386364
27.62	90.9878053031
27.64	90.3580651515
27.66	89.2706310606
27.68	89.0223431818
27.7	87.9220704546
27.72	87.3204681818
27.74	86.3174424243
27.76	85.2141310606
27.78	85.0885871212
27.8	84.9430560606
27.82	84.7136257576
27.84	84.3816295455
27.86	84.4573621212
27.88	83.4113871212
27.9	81.5212863637
27.92	80.1550348485
27.94	80.3473492425
27.96	79.4816613637
27.98	79.0128522728
28	78.3327757576
28.02	77.5214492425
28.04	76.3547189394
28.06	75.9309113637
28.08	74.7965295455
28.1	74.6109871212
28.12	73.5244916667
28.14	73.2312765152
28.16	72.8846598485
28.18	72.2090909091
28.2	72.8017416667
28.22	71.3909128788
28.24	71.2125666667
28.26	71.6079340909
28.28	70.8365977273
28.3	70.7943113637
28.32	69.6394174243
28.34	69.5338659091
28.36	68.6845378788
28.38	67.9203977273
28.4	66.4012810606
28.42	66.0759772728
28.44	65.8488431818
28.46	65.4049795455
28.48	63.9320045455
28.5	63.2793340909
28.52	64.0527863637
28.54	64.0319878788
28.56	63.7531174243
28.58	63.0198886364
28.6	61.9696287879
28.62	62.6794871212
28.64	62.559394697
28.66	62.1925310606
28.68	61.7882015152
28.7	60.7264075758
28.72	59.7083636364
28.74	60.1546878788
28.76	60.233814394
28.78	60.6160674243
28.8	59.8977878788
28.82	58.6214174243
28.84	58.0540462122
28.86	57.5389416667
28.88	56.9970515152
28.9	56.1113659091
28.92	55.0248863637
28.94	54.7318621212
28.96	54.2162219697
28.98	54.3615939394
29	54.525314394
29.02	53.5236356061
29.04	53.0633962122
29.06	53.3617234849
29.08	52.9468886364
29.1	53.4099969697
29.12	52.9300780303
29.14	52.3516181818
29.16	52.5664969697
29.18	51.5962863637
29.2	51.6988204546
29.22	51.6629083334
29.24	51.8219303031
29.26	51.1839280303
29.28	50.0976659091
29.3	49.9135712122
29.32	49.3177015152
29.34	48.5164242425
29.36	47.6492462122
29.38	47.3711871212
29.4	47.413675
29.42	47.2395181818
29.44	47.3086431818
29.46	46.7343674243
29.48	46.7729045455
29.5	46.359464394
29.52	46.060214394
29.54	45.6560492425
29.56	45.8745924243
29.58	46.0650454546
29.6	45.5918030303
29.62	45.2671674243
29.64	44.7164795455
29.66	44.5711553031
29.68	43.2407522728
29.7	42.265344697
29.72	41.8502553031
29.74	42.0758886364
29.76	42.2175962122
29.78	42.1808674243
29.8	42.2479984849
29.82	41.7324962122
29.84	41.2991537879
29.86	40.5686931818
29.88	40.3481083334
29.9	40.3361553031
29.92	40.6370227273
29.94	40.3486651515
29.96	40.0564469697
29.98	40.3401060606
30	39.6283439394
30.02	40.2968916667
30.04	39.3764075758
30.06	38.2143280303
30.08	38.0170181818
30.1	37.8313484849
30.12	38.5755492425
30.14	38.826939394
30.16	37.8725530303
30.18	37.6130174243
30.2	37.7443469697
30.22	37.5137765152
30.24	36.690714394
30.26	35.9748583334
30.28	35.9731295455
30.3	36.4851742425
30.32	36.5315174243
30.34	35.6580553031
30.36	35.8512181818
30.38	35.481464394
30.4	35.1777598485
30.42	35.8297356061
30.44	35.2111636364
30.46	35.3114704546
30.48	34.9647583334
30.5	35.1710780303
30.52	35.5569159091
30.54	34.8163477273
30.56	34.6787606061
30.58	34.6188734849
30.6	34.0544666667
30.62	33.8372810606
30.64	34.0085
30.66	33.5719916667
30.68	33.4668431818
30.7	32.9046689394
30.72	33.6036613637
30.74	33.710994697
30.76	34.0547106061
30.78	33.8967015152
30.8	32.486339394
30.82	32.061439394
30.84	32.1203295455
30.86	32.3319045455
30.88	32.298914394
30.9	31.7695340909
30.92	31.5728924243
30.94	31.2530189394
30.96	31.0137409091
30.98	31.1110939394
31	31.276214394
31.02	30.9053734849
31.04	31.0116992425
31.06	30.9034590909
31.08	30.574125
31.1	29.713989394
31.12	29.5084439394
31.14	29.6667924243
31.16	29.1188356061
31.18	29.3053590909
31.2	29.1055037879
31.22	29.0927924243
31.24	28.853525
31.26	28.2130568182
31.28	28.4799795455
31.3	29.2192962122
31.32	29.05075
31.34	27.4800401515
31.36	27.5138522728
31.38	27.3507787879
31.4	27.4973015152
31.42	27.6424136364
31.44	27.1160719697
31.46	27.0448575758
31.48	27.4004681818
31.5	27.1387424243
31.52	27.1557916667
31.54	27.2620113637
31.56	27.3722560606
31.58	26.8120545455
31.6	26.4587719697
31.62	26.2601204546
31.64	25.6802765152
31.66	25.5560265152
31.68	24.7266060606
31.7	24.5828939394
31.72	24.9749204546
31.74	25.1046803031
31.76	25.5168
31.78	25.721025
31.8	25.7931992425
31.82	25.696339394
31.84	25.9783545455
31.86	25.6587090909
31.88	24.300539394
31.9	24.0842234849
31.92	23.7986818182
31.94	24.1226333334
31.96	24.2925371212
31.98	24.5151901515
32	24.7115242425
32.02	24.0645015152
32.04	23.7563583334
32.06	23.22605
32.08	23.7691969697
32.1	23.3743386364
32.12	22.3916765152
32.14	22.4034121212
32.16	21.3714742425
32.18	21.3485439394
32.2	23.0616136364
32.22	23.7580659091
32.24	23.0831439394
32.26	22.4648848485
32.28	21.9619772728
32.3	22.2862787879
32.32	22.0208886364
32.34	21.8356431818
32.36	22.0434530303
32.38	22.5536310606
32.4	22.2792575758
32.42	22.3529113637
32.44	21.9339772728
32.46	20.9110757576
32.48	21.1839962122
32.5	20.4277204546
32.52	19.9450439394
32.54	19.9300840909
32.56	20.8071310606
32.58	21.7273924243
32.6	21.682189394
32.62	20.7311916667
32.64	21.125344697
32.66	22.1772590909
32.68	21.6949166667
32.7	21.3345121212
32.72	21.6567348485
32.74	22.1889151515
32.76	22.1774128788
32.78	21.3714742425
32.8	20.7012507576
32.82	20.2125128788
32.84	19.9450704546
32.86	19.8718992425
32.88	19.5807628788
32.9	19.4673734849
32.92	19.7241515152
32.94	19.5577954546
32.96	19.9740037879
32.98	20.3663166667
33	20.9772416667
33.02	20.6477537879
33.04	20.185419697
33.06	20.4684901515
33.08	20.4754901515
33.1	20.3702409091
33.12	19.4837810606
33.14	19.4221757576
33.16	19.8290401515
33.18	19.7346727273
33.2	19.4357303031
33.22	19.4726553031
33.24	19.7426219697
33.26	19.6676530303
33.28	19.7115037879
33.3	19.4391560606
33.32	19.01205
33.34	18.9784977273
33.36	18.8797765152
33.38	18.6762568182
33.4	18.443644697
33.42	17.9405037879
33.44	18.3797484849
33.46	18.7205265152
33.48	18.5317810606
33.5	18.0429212122
33.52	17.7811371212
33.54	18.2277901515
33.56	17.3697068182
33.58	16.5508818182
33.6	15.8668757576
33.62	15.7385530303
33.64	16.2533712122
33.66	16.3595856061
33.68	16.5649984849
33.7	16.9852583334
33.72	16.6015363637
33.74	16.910464394
33.76	17.3586765152
33.78	17.1018189394
33.8	16.4464121212
33.82	16.478214394
33.84	17.1214772728
33.86	16.6126727273
33.88	16.3208840909
33.9	16.1488113637
33.92	15.9869204546
33.94	16.048589394
33.96	15.7528712122
33.98	16.4683772728
34	16.7928060606
34.02	15.6780666667
34.04	16.3182166667
34.06	16.7914325758
34.08	16.5606553031
34.1	16.335244697
34.12	15.539525
34.14	15.2006825758
34.16	14.6937765152
34.18	14.3018719697
34.2	14.4418719697
34.22	14.3977136364
34.24	14.2374719697
34.26	15.0309272728
34.28	15.3651083334
34.3	15.0657098485
34.32	14.8196651515
34.34	15.0425833334
34.36	15.6980113637
34.38	15.5154174243
34.4	14.4688484849
34.42	14.2799492425
34.44	14.5375492425
34.46	14.5569477273
34.48	14.1051136364
34.5	13.4831212122
34.52	14.5864060606
34.54	14.6612742425
34.56	14.0898303031
34.58	14.6096704546
34.6	14.9751022728
34.62	14.9093659091
34.64	14.478839394
34.66	14.4317484849
34.68	14.5218204546
34.7	13.8095916667
34.72	13.949825
34.74	13.9617992425
34.76	13.8346166667
34.78	13.7087439394
34.8	13.7166295455
34.82	13.6205439394
34.84	13.4852106061
34.86	13.2625045455
34.88	13.3440916667
34.9	13.1586924243
34.92	13.4122090909
34.94	13.9913
34.96	13.6118416667
34.98	13.5292257576
35	13.8028356061
35.02	14.0523166667
35.04	12.889144697
35.06	12.5906848485
35.08	12.6969098485
35.1	13.2035136364
35.12	13.2319856061
35.14	12.2123666667
35.16	12.9336901515
35.18	13.1709477273
35.2	12.7741590909
35.22	13.1960469697
35.24	13.7961537879
35.26	13.8692719697
35.28	13.7545992425
35.3	14.033469697
35.32	13.7889575758
35.34	13.6941659091
35.36	13.5158833334
35.38	13.7665098485
35.4	13.2845969697
35.42	13.0372106061
35.44	13.0948810606
35.46	12.7664272728
35.48	12.6032106061
35.5	12.9532636364
35.52	13.3176348485
35.54	13.2187757576
35.56	12.8300954546
35.58	13.2427560606
35.6	13.0064
35.62	11.979489394
35.64	11.0112303031
35.66	11.183589394
35.68	11.2088848485
35.7	10.923019697
35.72	11.0798992425
35.74	10.8787340909
35.76	10.8800121212
35.78	10.9621295455
35.8	11.2377121212
35.82	11.7586553031
35.84	11.9564265152
35.86	11.5264833334
35.88	11.1663068182
35.9	11.0044477273
35.92	11.3980969697
35.94	11.2951333334
35.96	10.515619697
35.98	10.8936727273
36	11.0003962122
36.02	11.1081113637
36.04	11.5309219697
36.06	11.2225613637
36.08	10.9102977273
36.1	10.2685037879
36.12	10.0902848485
36.14	10.0637007576
36.16	10.3656234849
36.18	11.0562106061
36.2	11.1248795455
36.22	11.0512575758
36.24	10.8685204546
36.26	10.5637128788
36.28	10.0523734849
36.3	9.6764469697
36.32	9.9715818182
36.34	9.7671553031
36.36	9.7448772728
36.38	10.0443553031
36.4	10.0028484849
36.42	9.9286325758
36.44	10.5574128788
36.46	10.5197030303
36.48	10.3472590909
36.5	10.1643787879
36.52	9.8933090909
36.54	10.1685310606
36.56	9.9100083334
36.58	9.7529325758
36.6	9.7762712122
36.62	9.3707803031
36.64	9.0933681818
36.66	9.1306537879
36.68	9.25077803030001
36.7	9.2579318182
36.72	9.6722469697
36.74	9.7712492425
36.76	9.8645666667
36.78	10.2711022728
36.8	9.8308606061
36.82	9.7432333334
36.84	9.8538439394
36.86	10.1016280303
36.88	9.5215136364
36.9	8.6411522728
36.92	8.852775
36.94	8.8436537879
36.96	8.4627477273
36.98	7.8918712122
37	7.899364394
37.02	8.5944113637
37.04	8.0763742425
37.06	7.6551810606
37.08	7.3147371212
37.1	7.1961507576
37.12	7.7401462122
37.14	7.3483901515
37.16	8.0026780303
37.18	8.5660984849
37.2	8.6955666667
37.22	8.9835795455
37.24	8.31883409090001
37.26	8.4789272728
37.28	8.0546689394
37.3	8.0525159091
37.32	7.7298583334
37.34	7.4205803031
37.36	7.4564553031
37.38	7.1415507576
37.4	7.3669719697
37.42	7.6597045455
37.44	8.2585121212
37.46	8.6171825758
37.48	8.6172568182
37.5	8.1951780303
37.52	8.2998280303
37.54	8.5245704546
37.56	8.3594340909
37.58	8.6741689394
37.6	8.6280272728
37.62	8.9082924243
37.64	8.5943848485
37.66	7.9554492425
37.68	7.9795939394
37.7	7.7532022728
37.72	7.4166825758
37.74	7.3366439394
37.76	7.3929621212
37.78	7.7013704546
37.8	7.8466522728
37.82	8.0820007576
37.84	7.6229810606
37.86	7.6549212122
37.88	7.3508931818
37.9	6.7093803031
37.92	6.9707030303
37.94	7.2455007576
37.96	7.9041901515
37.98	7.8956310606
38	7.5575363637
38.02	7.5312015152
38.04	7.0599477273
38.06	7.4226007576
38.08	7.3018189394
38.1	7.5355022728
38.12	7.520844697
38.14	7.0881916667
38.16	7.4871386364
38.18	7.0651553031
38.2	7.3150287879
38.22	7.1141659091
38.24	7.3994265152
38.26	7.5783560606
38.28	7.4148106061
38.3	7.1876977273
38.32	7.02175
38.34	7.236119697
38.36	7.5186757576
38.38	7.0253719697
38.4	7.6614174243
38.42	7.654889394
38.44	7.4748409091
38.46	7.3356045455
38.48	7.0166113637
38.5	6.5983984849
38.52	6.4300856061
38.54	6.4338454546
38.56	6.3453484849
38.58	6.0601886364
38.6	5.9756159091
38.62	6.2302674243
38.64	5.9259848485
38.66	5.6329128788
38.68	6.2339053031
38.7	6.6309537879
38.72	6.6011878788
38.74	6.6096992425
38.76	7.0333636364
38.78	7.4589530303
38.8	7.6842840909
38.82	7.3750113637
38.84	7.0038787879
38.86	6.9327598485
38.88	7.1366931818
38.9	7.4041939394
38.92	7.1201159091
38.94	7.2972424243
38.96	6.9828734849
38.98	7.2505174243
39	7.7584469697
39.02	7.447875
39.04	7.2102674243
39.06	6.6179136364
39.08	6.7347977273
39.1	6.7143015152
39.12	6.3670378788
39.14	6.7781871212
39.16	6.1691234849
39.18	5.7890287879
39.2	6.1220537879
39.22	6.3124909091
39.24	5.9921560606
39.26	6.4727007576
39.28	6.7648606061
39.3	6.8876045455
39.32	7.0819712122
39.34	6.8621234849
39.36	7.0497553031
39.38	6.9212840909
39.4	6.8437484849
39.42	7.0969628788
39.44	7.5457106061
39.46	7.5960469697
39.48	7.5845818182
39.5	7.6044469697
39.52	7.6512462122
39.54	7.3987318182
39.56	7.2902901515
39.58	6.9846234849
39.6	7.0991689394
39.62	7.0363492425
39.64	7.2004356061
39.66	6.8960628788
39.68	7.0692068182
39.7	7.2118689394
39.72	7.4619439394
39.74	7.413214394
39.76	7.1674189394
39.78	7.3699098485
39.8	7.7226356061
39.82	7.7723833334
39.84	7.2216636364
39.86	6.9012227273
39.88	7.1788416667
39.9	7.1299795455
39.92	7.2011090909
39.94	7.6679719697
39.96	7.8849454546
39.98	8.0866462122
40	7.928419697
40.02	7.0953825758
40.04	7.1751295455
40.06	7.1063439394
40.08	7.1903492425
40.1	7.3471121212
40.12	7.5264075758
40.14	7.5360537879
40.16	7.6539719697
40.18	8.3800204546
40.2	8.718014394
40.22	8.4328863637
40.24	8.1874833334
40.26	8.1479916667
40.28	7.8878886364
40.3	7.7452424243
40.32	7.4358318182
40.34	7.6196083334
40.36	7.7374204546
40.38	7.0831909091
40.4	6.8017909091
40.42	6.8842424243
40.44	7.0687295455
40.46	7.1927356061
40.48	7.3152674243
40.5	7.4582424243
40.52	7.127614394
40.54	7.5372522728
40.56	7.3318340909
40.58	7.5694522728
40.6	7.9375780303
40.62	7.9893409091
40.64	8.2425022728
40.66	8.6234931818
40.68	8.7156598485
40.7	8.9564333334
40.72	8.9427992425
40.74	9.4438931818
40.76	9.3260174243
40.78	9.4513598485
40.8	9.1869189394
40.82	8.8711818182
40.84	9.3360931818
40.86	8.9287833334
40.88	9.147825
40.9	8.9461189394
40.92	9.0691704546
40.94	9.63205
40.96	9.9515628788
40.98	9.8496386364
41	9.779739394
41.02	9.800744697
41.04	10.2123659091
41.06	10.5331409091
41.08	9.7108212122
41.1	9.4981590909
41.12	9.9339886364
41.14	9.9321856061
41.16	9.8693924243
41.18	9.7285439394
41.2	9.9079666667
41.22	10.1239909091
41.24	9.4436333334
41.26	9.4672901515
41.28	9.426075
41.3	9.5702537879
41.32	9.2791704546
41.34	9.5451651515
41.36	9.6096606061
41.38	9.8356704546
41.4	10.3039492425
41.42	10.1232325758
41.44	10.5013015152
41.46	10.554464394
41.48	10.6033212122
41.5	10.2645
41.52	10.0904439394
41.54	9.9042068182
41.56	9.90964772730001
41.58	10.1438878788
41.6	9.8923916667
41.62	9.5275856061
41.64	9.4373863637
41.66	9.7125075758
41.68	9.7201015152
41.7	9.4791371212
41.72	9.6628659091
41.74	9.8699757576
41.76	10.0663416667
41.78	10.335375
41.8	10.5089378788
41.82	11.0018969697
41.84	10.9336628788
41.86	10.6062325758
41.88	10.109614394
41.9	10.1307151515
41.92	10.0424886364
41.94	10.46855
41.96	11.096614394
41.98	11.3547924243
42	11.2986386364
42.02	10.9070840909
42.04	10.560589394
42.06	10.9732818182
42.08	10.4968522728
42.1	10.4549424243
42.12	11.001239394
42.14	11.00055
42.16	11.4125265152
42.18	11.5373492425
42.2	11.2222219697
42.22	10.4457840909
42.24	9.8880219697
42.26	9.8744674243
42.28	10.3076189394
42.3	10.4691068182
42.32	10.2845136364
42.34	10.1367340909
42.36	10.5747590909
42.38	11.0851174243
42.4	10.5437522728
42.42	10.4181871212
42.44	10.9924310606
42.46	11.4086765152
42.48	10.8328787879
42.5	10.5347106061
42.52	10.8493181818
42.54	11.1752848485
42.56	10.5657439394
42.58	11.0670340909
42.6	11.5553106061
42.62	11.0158651515
42.64	11.1810916667
42.66	11.0052219697
42.68	10.8588106061
42.7	11.1937712122
42.72	11.1340856061
42.74	11.3065878788
42.76	11.5371742425
42.78	11.6883583334
42.8	11.6949075758
42.82	10.9494977273
42.84	10.9167674243
42.86	10.6395621212
42.88	10.9087969697
42.9	10.8893984849
42.92	10.7960386364
42.94	11.1859439394
42.96	11.4515462122
42.98	11.349489394
43	11.5546159091
43.02	11.6404719697
43.04	11.8073053031
43.06	11.7199166667
43.08	11.7136803031
43.1	12.0472356061
43.12	12.2217901515
43.14	11.8438962122
43.16	11.9169666667
43.18	11.942575
43.2	12.1511537879
43.22	11.5439568182
43.24	11.7105727273
43.26	12.0549886364
43.28	12.2254969697
43.3	12.2055575758
43.32	11.9918878788
43.34	12.0366666667
43.36	11.9734174243
43.38	10.8514818182
43.4	11.0524242425
43.42	10.8835492425
43.44	10.7528242425
43.46	10.7226075758
43.48	10.9627659091
43.5	11.0108856061
43.52	11.462375
43.54	11.6760924243
43.56	12.0998151515
43.58	11.4228939394
43.6	11.4065287879
43.62	11.8532295455
43.64	11.4112272728
43.66	11.1260621212
43.68	11.0185007576
43.7	10.9422219697
43.72	10.947525
43.74	11.112025
43.76	11.5351219697
43.78	11.0056780303
43.8	11.0170689394
43.82	11.2685174243
43.84	10.9563015152
43.86	11.7505204546
43.88	11.7216401515
43.9	11.8220530303
43.92	11.8389909091
43.94	12.4089818182
43.96	12.6463931818
43.98	12.1179303031
44	11.9467007576
44.02	11.7396121212
44.04	11.2693712122
44.06	10.7877977273
44.08	11.1894757576
44.1	11.4482318182
44.12	11.9965651515
44.14	12.0894795455
44.16	12.2261386364
44.18	12.078025
44.2	11.9230810606
44.22	11.3898189394
44.24	11.7712022728
44.26	11.8029462122
44.28	11.2961886364
44.3	10.9622356061
44.32	10.6589234849
44.34	10.5456083334
44.36	10.628314394
44.38	10.8181787879
44.4	11.0881931818
44.42	11.0622984849
44.44	10.7287007576
44.46	11.3632454546
44.48	11.3362848485
44.5	11.710869697
44.52	11.1995674243
44.54	11.0368333334
44.56	11.2042128788
44.58	11.0756090909
44.6	10.3649022728
44.62	10.3367484849
44.64	10.7293583334
44.66	11.1542583334
44.68	11.8472371212
44.7	11.8399136364
44.72	11.7925310606
44.74	11.8876727273
44.76	11.2471992425
44.78	11.1349022728
44.8	10.9173772728
44.82	10.4924030303
44.84	10.5227257576
44.86	10.2893340909
44.88	10.9861098485
44.9	11.5890484849
44.92	11.4674340909
44.94	11.4238909091
44.96	11.7071310606
44.98	11.6611325758
45	10.9463053031
45.02	10.5502484849
45.04	10.7748371212
45.06	11.0632053031
45.08	10.7838045455
45.1	10.4681045455
45.12	10.4722939394
45.14	10.2187030303
45.16	9.796019697
45.18	9.1295454546
45.2	8.7757909091
45.22	9.7396537879
45.24	10.3352212122
45.26	10.9776674243
45.28	11.1422628788
45.3	11.0901818182
45.32	11.0612219697
45.34	11.056364394
45.36	10.7581803031
45.38	10.7429924243
45.4	10.5986598485
45.42	10.3594772728
45.44	10.5354636364
45.46	10.3289265152
45.48	10.3667212122
45.5	9.9541348485
45.52	9.81125
45.54	10.0457606061
45.56	10.8520174243
45.58	11.2976310606
45.6	11.08875
45.62	11.495964394
45.64	11.3611878788
45.66	10.851964394
45.68	10.6942575758
45.7	10.3661590909
45.72	9.9175704546
45.74	9.7584424243
45.76	9.6910992425
45.78	9.7215916667
45.8	9.9377537879
45.82	10.2149378788
45.84	9.5930727273
45.86	9.4541386364
45.88	9.5100007576
45.9	9.331564394
45.92	9.3398742425
45.94	9.0369174243
45.96	9.046325
45.98	8.4895227273
46	8.3865590909
46.02	8.1909568182
46.04	8.2237560606
46.06	8.8988954546
46.08	9.1088318182
46.1	9.297275
46.12	9.7991007576
46.14	9.6572234849
46.16	9.4555174243
46.18	9.2473257576
46.2	9.0461765152
46.22	9.5930992425
46.24	9.3602962122
46.26	8.7712780303
46.28	8.9717803031
46.3	9.1736560606
46.32	9.4187674243
46.34	8.8813901515
46.36	8.4903234849
46.38	8.2902560606
46.4	8.2213166667
46.42	8.1903469697
46.44	8.3608022728
46.46	8.79839242430001
46.48	9.0843901515
46.5	8.646964394
46.52	8.8094439394
46.54	9.2081045455
46.56	9.2671325758
46.58	8.7795719697
46.6	8.4584734849
46.62	8.3857901515
46.64	8.6880522728
46.66	8.9033871212
46.68	8.0673803031
46.7	8.2841681818
46.72	7.8934833334
46.74	7.9127280303
46.76	8.0455265152
46.78	7.774064394
46.8	7.2961818182
46.82	7.2674818182
46.84	7.4288795455
46.86	7.1298681818
46.88	6.9217083334
46.9	7.1164886364
46.92	6.9627484849
46.94	6.9982469697
46.96	6.7363674243
46.98	6.6161477273
47	6.2958075758
47.02	6.6025878788
47.04	6.8371674243
47.06	7.2024984849
47.08	6.7803030303
47.1	6.063269697
47.12	6.3709090909
47.14	6.6252424243
47.16	6.9322295455
47.18	7.2246439394
47.2	6.8652151515
47.22	6.9760007576
47.24	6.6770212122
47.26	6.8483674243
47.28	6.4987439394
47.3	5.9581371212
47.32	6.2111818182
47.34	6.412744697
47.36	6.6897803031
47.38	6.3550795455
47.4	6.3501424243
47.42	6.2241689394
47.44	6.0349886364
47.46	5.6065833334
47.48	5.419789394
47.5	5.6250378788
47.52	5.8928886364
47.54	5.8883545455
47.56	5.5722780303
47.58	5.8771704546
47.6	6.4605780303
47.62	6.508989394
47.64	6.3990628788
47.66	6.3834560606
47.68	6.2458371212
47.7	6.0442371212
47.72	5.2882159091
47.74	5.1491492425
47.76	5.52375
47.78	5.2645378788
47.8	5.3311386364
47.82	5.6457621212
47.84	5.6238606061
47.86	4.9131590909
47.88	4.5401121212
47.9	5.1548818182
47.92	5.2125416667
47.94	5.1695340909
47.96	4.8956590909
47.98	4.5492704546
48	4.8707348485
48.02	5.26125
48.04	5.1714272728
48.06	4.9734015152
48.08	4.6694477273
48.1	5.1668984849
48.12	4.6985189394
48.14	4.7746174243
48.16	4.6342462122
48.18	4.5382825758
48.2	4.510844697
48.22	4.3980492425
48.24	4.7337469697
48.26	4.9592954546
48.28	5.7600159091
48.3	5.7332727273
48.32	5.1520553031
48.34	5.4843272728
48.36	5.5445113637
48.38	5.6699704546
48.4	5.2610325758
48.42	5.1306575758
48.44	4.8800840909
48.46	4.1399454546
48.48	3.818019697
48.5	3.4496553031
48.52	3.2210045455
48.54	3.4307818182
48.56	3.7846424243
48.58	3.9150916667
48.6	4.2514575758
48.62	3.9918795455
48.64	4.2497606061
48.66	3.9836174243
48.68	4.1221484849
48.7	3.7909795455
48.72	3.6106712122
48.74	3.2923674243
48.76	3.4221803031
48.78	4.3502901515
48.8	4.4875219697
48.82	3.960114394
48.84	4.0887924243
48.86	4.3527613637
48.88	4.3248886364
48.9	3.7392484849
48.92	3.5987659091
48.94	3.8893242425
48.96	3.4842787879
48.98	3.1537462122
49	3.3347810606
49.02	3.7222310606
49.04	3.3110287879
49.06	2.9347204546
49.08	3.2962015152
49.1	3.0547121212
49.12	3.3284439394
49.14	3.2816977273
49.16	3.0695818182
49.18	3.1271939394
49.2	3.2451068182
49.22	3.4369863637
49.24	3.2468674243
49.26	3.226864394
49.28	3.4413454546
49.3	3.2404772728
49.32	3.2700787879
49.34	3.6458037879
49.36	4.4158621212
49.38	4.437175
49.4	4.1563742425
49.42	4.016475
49.44	3.7392803031
49.46	3.5624401515
49.48	3.555
49.5	3.5544856061
49.52	3.4875136364
49.54	2.9184507576
49.56	2.8499303031
49.58	3.282875
49.6	3.3141310606
49.62	3.3816651515
49.64	3.5182977273
49.66	3.4158590909
49.68	3.101914394
49.7	3.3549537879
49.72	3.2541113637
49.74	3.3738007576
49.76	3.8099219697
49.78	3.7056113637
49.8	3.5787628788
49.82	3.5635590909
49.84	3.2438128788
49.86	3.616419697
49.88	3.4399189394
49.9	3.1651901515
49.92	2.612439394
49.94	1.6094772728
49.96	0.3908409091
49.98	0.4468030303
50	0
